# Concentracion g/m^3_=_53300.0
# C_Vs_to_Am_M_A/Vsm_=_128687336408.14134
# pendiente_HvsI_1/m_=_3716.3
# ordenada_HvsI_A/m_=_1297.0
# frecuencia_Hz_=_135985.0302194893
# Promedio de 25 ciclos

Tiempo_(s)	Campo_(V.s)	Magnetizacion_(V.s)	Campo_(kA/m)	Magnetizacion_(A/m)
0.000000e+00	-1.452348e-09	-6.772871e-09	-8.715286e+00	-8.682220e+02
1.000000e-08	-1.452360e-09	-6.763731e-09	-8.715358e+00	-8.682621e+02
2.000000e-08	-1.452339e-09	-6.769621e-09	-8.715229e+00	-8.682531e+02
3.000000e-08	-1.452273e-09	-6.769724e-09	-8.714836e+00	-8.681957e+02
4.000000e-08	-1.452152e-09	-6.761986e-09	-8.714111e+00	-8.680900e+02
5.000000e-08	-1.451946e-09	-6.766041e-09	-8.712871e+00	-8.679356e+02
6.000000e-08	-1.451609e-09	-6.770502e-09	-8.710850e+00	-8.677321e+02
7.000000e-08	-1.451133e-09	-6.764321e-09	-8.707992e+00	-8.674787e+02
8.000000e-08	-1.450545e-09	-6.760257e-09	-8.704463e+00	-8.671744e+02
9.000000e-08	-1.449845e-09	-6.758500e-09	-8.700263e+00	-8.668183e+02
1.000000e-07	-1.449001e-09	-6.750309e-09	-8.695200e+00	-8.664094e+02
1.100000e-07	-1.447946e-09	-6.742391e-09	-8.688869e+00	-8.659471e+02
1.200000e-07	-1.446660e-09	-6.740899e-09	-8.681151e+00	-8.654307e+02
1.300000e-07	-1.445201e-09	-6.737459e-09	-8.672398e+00	-8.648600e+02
1.400000e-07	-1.443636e-09	-6.729770e-09	-8.663004e+00	-8.642353e+02
1.500000e-07	-1.442016e-09	-6.724736e-09	-8.653286e+00	-8.635569e+02
1.600000e-07	-1.440368e-09	-6.721561e-09	-8.643397e+00	-8.628257e+02
1.700000e-07	-1.438691e-09	-6.714794e-09	-8.633332e+00	-8.620429e+02
1.800000e-07	-1.436944e-09	-6.705725e-09	-8.622847e+00	-8.612095e+02
1.900000e-07	-1.435075e-09	-6.698482e-09	-8.611629e+00	-8.603272e+02
2.000000e-07	-1.433058e-09	-6.691292e-09	-8.599526e+00	-8.593970e+02
2.100000e-07	-1.430925e-09	-6.682276e-09	-8.586728e+00	-8.584202e+02
2.200000e-07	-1.428720e-09	-6.673541e-09	-8.573496e+00	-8.573977e+02
2.300000e-07	-1.426438e-09	-6.665160e-09	-8.559803e+00	-8.563298e+02
2.400000e-07	-1.424071e-09	-6.655254e-09	-8.545599e+00	-8.552164e+02
2.500000e-07	-1.421612e-09	-6.644740e-09	-8.530844e+00	-8.540569e+02
2.600000e-07	-1.419050e-09	-6.635089e-09	-8.515467e+00	-8.528501e+02
2.700000e-07	-1.416380e-09	-6.625247e-09	-8.499446e+00	-8.515942e+02
2.800000e-07	-1.413582e-09	-6.615174e-09	-8.482659e+00	-8.502870e+02
2.900000e-07	-1.410642e-09	-6.605502e-09	-8.465016e+00	-8.489260e+02
3.000000e-07	-1.407578e-09	-6.595389e-09	-8.446627e+00	-8.475084e+02
3.100000e-07	-1.404436e-09	-6.583813e-09	-8.427772e+00	-8.460316e+02
3.200000e-07	-1.401252e-09	-6.570718e-09	-8.408666e+00	-8.444930e+02
3.300000e-07	-1.398027e-09	-6.556603e-09	-8.389314e+00	-8.428905e+02
3.400000e-07	-1.394750e-09	-6.541902e-09	-8.369646e+00	-8.412225e+02
3.500000e-07	-1.391407e-09	-6.527269e-09	-8.349591e+00	-8.394883e+02
3.600000e-07	-1.387990e-09	-6.513182e-09	-8.329084e+00	-8.376878e+02
3.700000e-07	-1.384474e-09	-6.498944e-09	-8.307986e+00	-8.358221e+02
3.800000e-07	-1.380815e-09	-6.483331e-09	-8.286030e+00	-8.338927e+02
3.900000e-07	-1.376977e-09	-6.467118e-09	-8.262994e+00	-8.319025e+02
4.000000e-07	-1.372950e-09	-6.450239e-09	-8.238832e+00	-8.298548e+02
4.100000e-07	-1.368749e-09	-6.432038e-09	-8.213622e+00	-8.277532e+02
4.200000e-07	-1.364369e-09	-6.414078e-09	-8.187340e+00	-8.256021e+02
4.300000e-07	-1.359837e-09	-6.397759e-09	-8.160142e+00	-8.234055e+02
4.400000e-07	-1.355184e-09	-6.382511e-09	-8.132218e+00	-8.211674e+02
4.500000e-07	-1.350432e-09	-6.367107e-09	-8.103702e+00	-8.188912e+02
4.600000e-07	-1.345614e-09	-6.350232e-09	-8.074793e+00	-8.165796e+02
4.700000e-07	-1.340733e-09	-6.331356e-09	-8.045503e+00	-8.142347e+02
4.800000e-07	-1.335780e-09	-6.310962e-09	-8.015779e+00	-8.118572e+02
4.900000e-07	-1.330730e-09	-6.290493e-09	-7.985477e+00	-8.094470e+02
5.000000e-07	-1.325578e-09	-6.271194e-09	-7.954561e+00	-8.070029e+02
5.100000e-07	-1.320315e-09	-6.253066e-09	-7.922975e+00	-8.045228e+02
5.200000e-07	-1.314937e-09	-6.235100e-09	-7.890702e+00	-8.020037e+02
5.300000e-07	-1.309456e-09	-6.216446e-09	-7.857813e+00	-7.994422e+02
5.400000e-07	-1.303876e-09	-6.197464e-09	-7.824329e+00	-7.968345e+02
5.500000e-07	-1.298195e-09	-6.177716e-09	-7.790240e+00	-7.941769e+02
5.600000e-07	-1.292400e-09	-6.156147e-09	-7.755463e+00	-7.914657e+02
5.700000e-07	-1.286472e-09	-6.133066e-09	-7.719892e+00	-7.886979e+02
5.800000e-07	-1.280391e-09	-6.109989e-09	-7.683399e+00	-7.858710e+02
5.900000e-07	-1.274159e-09	-6.087548e-09	-7.646003e+00	-7.829836e+02
6.000000e-07	-1.267804e-09	-6.064590e-09	-7.607870e+00	-7.800351e+02
6.100000e-07	-1.261337e-09	-6.040154e-09	-7.569063e+00	-7.770258e+02
6.200000e-07	-1.254750e-09	-6.015141e-09	-7.529533e+00	-7.739571e+02
6.300000e-07	-1.248061e-09	-5.990033e-09	-7.489393e+00	-7.708309e+02
6.400000e-07	-1.241279e-09	-5.964848e-09	-7.448698e+00	-7.676498e+02
6.500000e-07	-1.234409e-09	-5.940204e-09	-7.407470e+00	-7.644169e+02
6.600000e-07	-1.227469e-09	-5.915959e-09	-7.365823e+00	-7.611351e+02
6.700000e-07	-1.220458e-09	-5.890394e-09	-7.323753e+00	-7.578074e+02
6.800000e-07	-1.213385e-09	-5.863023e-09	-7.281311e+00	-7.544362e+02
6.900000e-07	-1.206258e-09	-5.835200e-09	-7.238544e+00	-7.510234e+02
7.000000e-07	-1.199061e-09	-5.807632e-09	-7.195355e+00	-7.475702e+02
7.100000e-07	-1.191779e-09	-5.779768e-09	-7.151653e+00	-7.440767e+02
7.200000e-07	-1.184408e-09	-5.751066e-09	-7.107424e+00	-7.405425e+02
7.300000e-07	-1.176951e-09	-5.722376e-09	-7.062676e+00	-7.369661e+02
7.400000e-07	-1.169406e-09	-5.694304e-09	-7.017398e+00	-7.333454e+02
7.500000e-07	-1.161758e-09	-5.666472e-09	-6.971505e+00	-7.296777e+02
7.600000e-07	-1.154014e-09	-5.638118e-09	-6.925035e+00	-7.259599e+02
7.700000e-07	-1.146194e-09	-5.608523e-09	-6.878109e+00	-7.221890e+02
7.800000e-07	-1.138307e-09	-5.577830e-09	-6.830777e+00	-7.183619e+02
7.900000e-07	-1.130360e-09	-5.547167e-09	-6.783089e+00	-7.144757e+02
8.000000e-07	-1.122365e-09	-5.517015e-09	-6.735114e+00	-7.105280e+02
8.100000e-07	-1.114333e-09	-5.486001e-09	-6.686917e+00	-7.065173e+02
8.200000e-07	-1.106267e-09	-5.453250e-09	-6.638511e+00	-7.024423e+02
8.300000e-07	-1.098153e-09	-5.420142e-09	-6.589824e+00	-6.983027e+02
8.400000e-07	-1.089978e-09	-5.387581e-09	-6.540767e+00	-6.940987e+02
8.500000e-07	-1.081735e-09	-5.354551e-09	-6.491301e+00	-6.898311e+02
8.600000e-07	-1.073413e-09	-5.320354e-09	-6.441359e+00	-6.855012e+02
8.700000e-07	-1.065011e-09	-5.285784e-09	-6.390944e+00	-6.811106e+02
8.800000e-07	-1.056535e-09	-5.251371e-09	-6.340080e+00	-6.766608e+02
8.900000e-07	-1.047974e-09	-5.217061e-09	-6.288708e+00	-6.721536e+02
9.000000e-07	-1.039339e-09	-5.182590e-09	-6.236887e+00	-6.675905e+02
9.100000e-07	-1.030632e-09	-5.147136e-09	-6.184637e+00	-6.629725e+02
9.200000e-07	-1.021843e-09	-5.110762e-09	-6.131899e+00	-6.583008e+02
9.300000e-07	-1.012986e-09	-5.074146e-09	-6.078750e+00	-6.535756e+02
9.400000e-07	-1.004069e-09	-5.037367e-09	-6.025242e+00	-6.487971e+02
9.500000e-07	-9.950837e-10	-5.000251e-09	-5.971321e+00	-6.439651e+02
9.600000e-07	-9.860262e-10	-4.962366e-09	-5.916969e+00	-6.390791e+02
9.700000e-07	-9.768942e-10	-4.923398e-09	-5.862169e+00	-6.341386e+02
9.800000e-07	-9.676806e-10	-4.884203e-09	-5.806880e+00	-6.291428e+02
9.900000e-07	-9.583842e-10	-4.845761e-09	-5.751094e+00	-6.240914e+02
1.000000e-06	-9.490150e-10	-4.807031e-09	-5.694871e+00	-6.189840e+02
1.010000e-06	-9.395801e-10	-4.766719e-09	-5.638254e+00	-6.138205e+02
1.020000e-06	-9.300946e-10	-4.726055e-09	-5.581333e+00	-6.086013e+02
1.030000e-06	-9.205689e-10	-4.686101e-09	-5.524171e+00	-6.033270e+02
1.040000e-06	-9.109990e-10	-4.645987e-09	-5.466744e+00	-5.979987e+02
1.050000e-06	-9.013884e-10	-4.605645e-09	-5.409072e+00	-5.926177e+02
1.060000e-06	-8.917330e-10	-4.564579e-09	-5.351132e+00	-5.871857e+02
1.070000e-06	-8.820334e-10	-4.521965e-09	-5.292926e+00	-5.817045e+02
1.080000e-06	-8.722831e-10	-4.479278e-09	-5.234416e+00	-5.761759e+02
1.090000e-06	-8.624693e-10	-4.436914e-09	-5.175525e+00	-5.706020e+02
1.100000e-06	-8.525799e-10	-4.393599e-09	-5.116181e+00	-5.649844e+02
1.110000e-06	-8.426133e-10	-4.349428e-09	-5.056373e+00	-5.593248e+02
1.120000e-06	-8.325666e-10	-4.305102e-09	-4.996084e+00	-5.536246e+02
1.130000e-06	-8.224336e-10	-4.260668e-09	-4.935278e+00	-5.478851e+02
1.140000e-06	-8.122103e-10	-4.215682e-09	-4.873930e+00	-5.421070e+02
1.150000e-06	-8.018813e-10	-4.170127e-09	-4.811948e+00	-5.362910e+02
1.160000e-06	-7.914570e-10	-4.124261e-09	-4.749393e+00	-5.304377e+02
1.170000e-06	-7.809546e-10	-4.078464e-09	-4.686370e+00	-5.245471e+02
1.180000e-06	-7.703582e-10	-4.033220e-09	-4.622783e+00	-5.186195e+02
1.190000e-06	-7.596609e-10	-3.987870e-09	-4.558590e+00	-5.126548e+02
1.200000e-06	-7.488750e-10	-3.941395e-09	-4.493866e+00	-5.066530e+02
1.210000e-06	-7.379963e-10	-3.894116e-09	-4.428585e+00	-5.006140e+02
1.220000e-06	-7.270221e-10	-3.846776e-09	-4.362731e+00	-4.945378e+02
1.230000e-06	-7.159814e-10	-3.799385e-09	-4.296478e+00	-4.884243e+02
1.240000e-06	-7.048917e-10	-3.751366e-09	-4.229930e+00	-4.822734e+02
1.250000e-06	-6.937563e-10	-3.702533e-09	-4.163108e+00	-4.760851e+02
1.260000e-06	-6.825893e-10	-3.653497e-09	-4.096097e+00	-4.698592e+02
1.270000e-06	-6.713971e-10	-3.604678e-09	-4.028935e+00	-4.635957e+02
1.280000e-06	-6.601850e-10	-3.556070e-09	-3.961653e+00	-4.572942e+02
1.290000e-06	-6.489580e-10	-3.507216e-09	-3.894282e+00	-4.509544e+02
1.300000e-06	-6.377151e-10	-3.457379e-09	-3.826815e+00	-4.445760e+02
1.310000e-06	-6.264529e-10	-3.406935e-09	-3.759233e+00	-4.381583e+02
1.320000e-06	-6.151771e-10	-3.356369e-09	-3.691569e+00	-4.317008e+02
1.330000e-06	-6.038824e-10	-3.305285e-09	-3.623791e+00	-4.252029e+02
1.340000e-06	-5.925582e-10	-3.253818e-09	-3.555836e+00	-4.186640e+02
1.350000e-06	-5.812005e-10	-3.202012e-09	-3.487681e+00	-4.120834e+02
1.360000e-06	-5.698010e-10	-3.150321e-09	-3.419275e+00	-4.054606e+02
1.370000e-06	-5.583487e-10	-3.099164e-09	-3.350552e+00	-3.987952e+02
1.380000e-06	-5.468403e-10	-3.047628e-09	-3.281492e+00	-3.920868e+02
1.390000e-06	-5.352938e-10	-2.994973e-09	-3.212203e+00	-3.853353e+02
1.400000e-06	-5.237140e-10	-2.941658e-09	-3.142715e+00	-3.785406e+02
1.410000e-06	-5.120977e-10	-2.888751e-09	-3.073007e+00	-3.717028e+02
1.420000e-06	-5.004416e-10	-2.835815e-09	-3.003061e+00	-3.648219e+02
1.430000e-06	-4.887462e-10	-2.781665e-09	-2.932879e+00	-3.578981e+02
1.440000e-06	-4.770158e-10	-2.727071e-09	-2.862487e+00	-3.509316e+02
1.450000e-06	-4.652459e-10	-2.672729e-09	-2.791858e+00	-3.439224e+02
1.460000e-06	-4.534429e-10	-2.618181e-09	-2.721030e+00	-3.368705e+02
1.470000e-06	-4.416092e-10	-2.562914e-09	-2.650018e+00	-3.297758e+02
1.480000e-06	-4.297380e-10	-2.506583e-09	-2.578781e+00	-3.226378e+02
1.490000e-06	-4.178307e-10	-2.449701e-09	-2.507328e+00	-3.154561e+02
1.500000e-06	-4.058883e-10	-2.392870e-09	-2.435664e+00	-3.082301e+02
1.510000e-06	-3.939167e-10	-2.336312e-09	-2.363824e+00	-3.009588e+02
1.520000e-06	-3.819234e-10	-2.279621e-09	-2.291854e+00	-2.936415e+02
1.530000e-06	-3.699122e-10	-2.221850e-09	-2.219777e+00	-2.862770e+02
1.540000e-06	-3.578890e-10	-2.163646e-09	-2.147628e+00	-2.788645e+02
1.550000e-06	-3.458558e-10	-2.105559e-09	-2.075419e+00	-2.714031e+02
1.560000e-06	-3.338081e-10	-2.046939e-09	-2.003123e+00	-2.638919e+02
1.570000e-06	-3.217519e-10	-1.987991e-09	-1.930776e+00	-2.563304e+02
1.580000e-06	-3.096912e-10	-1.928679e-09	-1.858402e+00	-2.487182e+02
1.590000e-06	-2.976148e-10	-1.868828e-09	-1.785933e+00	-2.410550e+02
1.600000e-06	-2.855197e-10	-1.808943e-09	-1.713353e+00	-2.333409e+02
1.610000e-06	-2.734045e-10	-1.749048e-09	-1.640652e+00	-2.255762e+02
1.620000e-06	-2.612767e-10	-1.688419e-09	-1.567874e+00	-2.177613e+02
1.630000e-06	-2.491302e-10	-1.626638e-09	-1.494986e+00	-2.098968e+02
1.640000e-06	-2.369566e-10	-1.564000e-09	-1.421934e+00	-2.019835e+02
1.650000e-06	-2.247637e-10	-1.501510e-09	-1.348766e+00	-1.940222e+02
1.660000e-06	-2.125623e-10	-1.439491e-09	-1.275548e+00	-1.860139e+02
1.670000e-06	-2.003507e-10	-1.376866e-09	-1.202269e+00	-1.779595e+02
1.680000e-06	-1.881372e-10	-1.313139e-09	-1.128978e+00	-1.698600e+02
1.690000e-06	-1.759227e-10	-1.248940e-09	-1.055680e+00	-1.617165e+02
1.700000e-06	-1.636941e-10	-1.185555e-09	-9.822987e-01	-1.535298e+02
1.710000e-06	-1.514651e-10	-1.122872e-09	-9.089145e-01	-1.453012e+02
1.720000e-06	-1.392335e-10	-1.059131e-09	-8.355148e-01	-1.370317e+02
1.730000e-06	-1.269830e-10	-9.940737e-10	-7.620020e-01	-1.287226e+02
1.740000e-06	-1.147098e-10	-9.290843e-10	-6.883523e-01	-1.203750e+02
1.750000e-06	-1.024263e-10	-8.644726e-10	-6.146412e-01	-1.119905e+02
1.760000e-06	-9.014190e-11	-7.990878e-10	-5.409249e-01	-1.035704e+02
1.770000e-06	-7.784377e-11	-7.324344e-10	-4.671260e-01	-9.511644e+01
1.780000e-06	-6.552060e-11	-6.650594e-10	-3.931768e-01	-8.663033e+01
1.790000e-06	-5.319133e-11	-5.975598e-10	-3.191911e-01	-7.811385e+01
1.800000e-06	-4.086672e-11	-5.309177e-10	-2.452333e-01	-6.956885e+01
1.810000e-06	-2.853704e-11	-4.651788e-10	-1.712450e-01	-6.099718e+01
1.820000e-06	-1.621507e-11	-3.988339e-10	-9.730303e-02	-5.240071e+01
1.830000e-06	-3.905815e-12	-3.311340e-10	-2.343736e-02	-4.378123e+01
1.840000e-06	8.406128e-12	-2.626020e-10	5.044443e-02	-3.514050e+01
1.850000e-06	2.071350e-11	-1.947423e-10	1.242988e-01	-2.648019e+01
1.860000e-06	3.301098e-11	-1.277713e-10	1.980938e-01	-1.780192e+01
1.870000e-06	4.530902e-11	-5.986909e-11	2.718922e-01	-9.107219e+00
1.880000e-06	5.760878e-11	8.875498e-12	3.457009e-01	-3.976400e-01
1.890000e-06	6.991871e-11	7.734395e-11	4.195706e-01	8.325267e+00
1.900000e-06	8.222819e-11	1.456225e-10	4.934376e-01	1.705988e+01
1.910000e-06	9.452839e-11	2.134621e-10	5.672490e-01	2.580448e+01
1.920000e-06	1.068237e-10	2.816224e-10	6.410311e-01	3.455717e+01
1.930000e-06	1.191080e-10	3.508328e-10	7.147471e-01	4.331587e+01
1.940000e-06	1.313777e-10	4.196441e-10	7.883754e-01	5.207830e+01
1.950000e-06	1.436334e-10	4.875270e-10	8.619196e-01	6.084196e+01
1.960000e-06	1.558760e-10	5.552831e-10	9.353855e-01	6.960417e+01
1.970000e-06	1.681063e-10	6.235976e-10	1.008777e+00	7.836207e+01
1.980000e-06	1.803207e-10	6.926611e-10	1.082073e+00	8.711272e+01
1.990000e-06	1.925185e-10	7.614560e-10	1.155270e+00	9.585313e+01
2.000000e-06	2.047028e-10	8.293963e-10	1.228386e+00	1.045803e+02
2.010000e-06	2.168757e-10	8.970534e-10	1.301434e+00	1.132916e+02
2.020000e-06	2.290441e-10	9.647315e-10	1.374454e+00	1.219841e+02
2.030000e-06	2.412065e-10	1.032288e-09	1.447438e+00	1.306555e+02
2.040000e-06	2.533583e-10	1.099803e-09	1.520359e+00	1.393037e+02
2.050000e-06	2.654966e-10	1.167238e-09	1.593199e+00	1.479268e+02
2.060000e-06	2.776185e-10	1.234728e-09	1.665940e+00	1.565232e+02
2.070000e-06	2.897278e-10	1.302331e-09	1.738606e+00	1.650915e+02
2.080000e-06	3.018201e-10	1.369380e-09	1.811170e+00	1.736305e+02
2.090000e-06	3.138902e-10	1.435616e-09	1.883600e+00	1.821392e+02
2.100000e-06	3.259430e-10	1.501162e-09	1.955927e+00	1.906164e+02
2.110000e-06	3.379782e-10	1.566333e-09	2.028149e+00	1.990609e+02
2.120000e-06	3.499956e-10	1.631568e-09	2.100262e+00	2.074714e+02
2.130000e-06	3.619958e-10	1.697104e-09	2.172274e+00	2.158462e+02
2.140000e-06	3.739744e-10	1.762767e-09	2.244155e+00	2.241835e+02
2.150000e-06	3.859374e-10	1.827821e-09	2.315943e+00	2.324810e+02
2.160000e-06	3.978890e-10	1.892281e-09	2.387663e+00	2.407363e+02
2.170000e-06	4.098225e-10	1.956580e-09	2.459273e+00	2.489467e+02
2.180000e-06	4.217291e-10	2.020318e-09	2.530723e+00	2.571092e+02
2.190000e-06	4.336066e-10	2.083047e-09	2.601997e+00	2.652211e+02
2.200000e-06	4.454559e-10	2.144703e-09	2.673103e+00	2.732794e+02
2.210000e-06	4.572696e-10	2.206747e-09	2.743995e+00	2.812816e+02
2.220000e-06	4.690444e-10	2.269631e-09	2.814654e+00	2.892253e+02
2.230000e-06	4.807763e-10	2.331935e-09	2.885054e+00	2.971086e+02
2.240000e-06	4.924555e-10	2.392345e-09	2.955139e+00	3.049303e+02
2.250000e-06	5.040760e-10	2.451184e-09	3.024872e+00	3.126897e+02
2.260000e-06	5.156456e-10	2.510423e-09	3.094299e+00	3.203865e+02
2.270000e-06	5.271770e-10	2.569696e-09	3.163497e+00	3.280212e+02
2.280000e-06	5.386687e-10	2.628519e-09	3.232457e+00	3.355949e+02
2.290000e-06	5.501125e-10	2.686599e-09	3.301129e+00	3.431090e+02
2.300000e-06	5.615246e-10	2.743797e-09	3.369611e+00	3.505651e+02
2.310000e-06	5.729136e-10	2.801522e-09	3.437954e+00	3.579654e+02
2.320000e-06	5.842736e-10	2.859666e-09	3.506124e+00	3.653118e+02
2.330000e-06	5.956061e-10	2.916484e-09	3.574128e+00	3.726060e+02
2.340000e-06	6.069113e-10	2.971436e-09	3.641969e+00	3.798499e+02
2.350000e-06	6.181935e-10	3.026033e-09	3.709671e+00	3.870448e+02
2.360000e-06	6.294602e-10	3.081413e-09	3.777280e+00	3.941914e+02
2.370000e-06	6.407131e-10	3.137262e-09	3.844807e+00	4.012904e+02
2.380000e-06	6.519463e-10	3.192310e-09	3.912216e+00	4.083417e+02
2.390000e-06	6.631596e-10	3.246461e-09	3.979505e+00	4.153449e+02
2.400000e-06	6.743566e-10	3.300576e-09	4.046696e+00	4.222993e+02
2.410000e-06	6.855324e-10	3.354524e-09	4.113760e+00	4.292040e+02
2.420000e-06	6.966753e-10	3.408168e-09	4.180626e+00	4.360578e+02
2.430000e-06	7.077740e-10	3.461162e-09	4.247228e+00	4.428597e+02
2.440000e-06	7.188274e-10	3.513508e-09	4.313557e+00	4.496086e+02
2.450000e-06	7.298269e-10	3.565419e-09	4.379563e+00	4.563039e+02
2.460000e-06	7.407614e-10	3.617503e-09	4.445179e+00	4.629450e+02
2.470000e-06	7.516195e-10	3.669854e-09	4.510337e+00	4.695319e+02
2.480000e-06	7.623833e-10	3.721014e-09	4.574928e+00	4.760648e+02
2.490000e-06	7.730318e-10	3.770577e-09	4.638828e+00	4.825446e+02
2.500000e-06	7.835520e-10	3.819497e-09	4.701958e+00	4.889721e+02
2.510000e-06	7.939594e-10	3.868477e-09	4.764411e+00	4.953488e+02
2.520000e-06	8.042552e-10	3.917640e-09	4.826194e+00	5.016761e+02
2.530000e-06	8.144424e-10	3.966062e-09	4.887326e+00	5.079556e+02
2.540000e-06	8.245340e-10	4.013683e-09	4.947884e+00	5.141890e+02
2.550000e-06	8.345413e-10	4.061386e-09	5.007936e+00	5.203776e+02
2.560000e-06	8.444765e-10	4.109221e-09	5.067555e+00	5.265227e+02
2.570000e-06	8.543418e-10	4.156702e-09	5.126755e+00	5.326253e+02
2.580000e-06	8.641446e-10	4.203446e-09	5.185580e+00	5.386858e+02
2.590000e-06	8.739021e-10	4.249553e-09	5.244133e+00	5.447045e+02
2.600000e-06	8.836196e-10	4.295534e-09	5.302446e+00	5.506811e+02
2.610000e-06	8.932922e-10	4.341531e-09	5.360489e+00	5.566150e+02
2.620000e-06	9.029234e-10	4.387148e-09	5.418284e+00	5.625053e+02
2.630000e-06	9.125146e-10	4.432250e-09	5.475840e+00	5.683507e+02
2.640000e-06	9.220640e-10	4.476975e-09	5.533144e+00	5.741499e+02
2.650000e-06	9.315537e-10	4.521392e-09	5.590090e+00	5.799011e+02
2.660000e-06	9.409684e-10	4.565455e-09	5.646586e+00	5.856030e+02
2.670000e-06	9.503118e-10	4.609063e-09	5.702654e+00	5.912539e+02
2.680000e-06	9.595783e-10	4.651831e-09	5.758261e+00	5.968524e+02
2.690000e-06	9.687562e-10	4.694127e-09	5.813335e+00	6.023971e+02
2.700000e-06	9.778592e-10	4.736603e-09	5.867961e+00	6.078871e+02
2.710000e-06	9.868956e-10	4.778571e-09	5.922187e+00	6.133214e+02
2.720000e-06	9.958717e-10	4.819753e-09	5.976051e+00	6.186992e+02
2.730000e-06	1.004797e-09	4.860861e-09	6.029612e+00	6.240202e+02
2.740000e-06	1.013668e-09	4.900936e-09	6.082845e+00	6.292838e+02
2.750000e-06	1.022480e-09	4.940285e-09	6.135720e+00	6.344899e+02
2.760000e-06	1.031221e-09	4.980201e-09	6.188178e+00	6.396381e+02
2.770000e-06	1.039890e-09	5.019975e-09	6.240198e+00	6.447281e+02
2.780000e-06	1.048476e-09	5.058940e-09	6.291720e+00	6.497598e+02
2.790000e-06	1.056970e-09	5.097232e-09	6.342693e+00	6.547325e+02
2.800000e-06	1.065379e-09	5.134891e-09	6.393153e+00	6.596458e+02
2.810000e-06	1.073700e-09	5.171950e-09	6.443083e+00	6.644988e+02
2.820000e-06	1.081936e-09	5.208751e-09	6.492506e+00	6.692906e+02
2.830000e-06	1.090107e-09	5.245220e-09	6.541538e+00	6.740202e+02
2.840000e-06	1.098232e-09	5.281394e-09	6.590295e+00	6.786862e+02
2.850000e-06	1.106325e-09	5.317699e-09	6.638864e+00	6.832873e+02
2.860000e-06	1.114388e-09	5.354119e-09	6.687245e+00	6.878221e+02
2.870000e-06	1.122415e-09	5.389290e-09	6.735417e+00	6.922892e+02
2.880000e-06	1.130405e-09	5.422987e-09	6.783361e+00	6.966871e+02
2.890000e-06	1.138346e-09	5.456604e-09	6.831015e+00	7.010146e+02
2.900000e-06	1.146231e-09	5.489868e-09	6.878329e+00	7.052706e+02
2.910000e-06	1.154032e-09	5.522285e-09	6.925140e+00	7.094543e+02
