# Concentracion g/m^3_=_53300.0
# C_Vs_to_Am_M_A/Vsm_=_128687336408.14134
# pendiente_HvsI_1/m_=_3716.3
# ordenada_HvsI_A/m_=_1297.0
# frecuencia_Hz_=_136178.57710866656
# Promedio de 29 ciclos

Tiempo_(s)	Campo_(V.s)	Magnetizacion_(V.s)	Campo_(kA/m)	Magnetizacion_(A/m)
0.000000e+00	-6.370842e-09	-1.921616e-08	-3.468986e+01	-2.469129e+03
1.000000e-08	-6.370783e-09	-1.921519e-08	-3.468953e+01	-2.469004e+03
2.000000e-08	-6.370289e-09	-1.921356e-08	-3.468684e+01	-2.468758e+03
3.000000e-08	-6.369228e-09	-1.921121e-08	-3.468107e+01	-2.468392e+03
4.000000e-08	-6.367702e-09	-1.920784e-08	-3.467276e+01	-2.467912e+03
5.000000e-08	-6.365813e-09	-1.920275e-08	-3.466247e+01	-2.467322e+03
6.000000e-08	-6.363491e-09	-1.919690e-08	-3.464983e+01	-2.466627e+03
7.000000e-08	-6.360722e-09	-1.919182e-08	-3.463475e+01	-2.465830e+03
8.000000e-08	-6.357491e-09	-1.918638e-08	-3.461716e+01	-2.464938e+03
9.000000e-08	-6.353538e-09	-1.917336e-08	-3.459563e+01	-2.463954e+03
1.000000e-07	-6.348655e-09	-1.915668e-08	-3.456905e+01	-2.462880e+03
1.100000e-07	-6.343180e-09	-1.915712e-08	-3.453923e+01	-2.461719e+03
1.200000e-07	-6.337650e-09	-1.916157e-08	-3.450912e+01	-2.460471e+03
1.300000e-07	-6.331903e-09	-1.913511e-08	-3.447783e+01	-2.459137e+03
1.400000e-07	-6.325389e-09	-1.910743e-08	-3.444236e+01	-2.457715e+03
1.500000e-07	-6.318161e-09	-1.911852e-08	-3.440300e+01	-2.456203e+03
1.600000e-07	-6.310694e-09	-1.912311e-08	-3.436234e+01	-2.454599e+03
1.700000e-07	-6.303037e-09	-1.907798e-08	-3.432065e+01	-2.452899e+03
1.800000e-07	-6.294859e-09	-1.904648e-08	-3.427612e+01	-2.451100e+03
1.900000e-07	-6.286132e-09	-1.906463e-08	-3.422860e+01	-2.449198e+03
2.000000e-07	-6.277117e-09	-1.906352e-08	-3.417951e+01	-2.447191e+03
2.100000e-07	-6.267801e-09	-1.901449e-08	-3.412879e+01	-2.445076e+03
2.200000e-07	-6.257884e-09	-1.898694e-08	-3.407479e+01	-2.442851e+03
2.300000e-07	-6.247401e-09	-1.899835e-08	-3.401771e+01	-2.440515e+03
2.400000e-07	-6.236508e-09	-1.898247e-08	-3.395840e+01	-2.438067e+03
2.500000e-07	-6.225147e-09	-1.893436e-08	-3.389653e+01	-2.435509e+03
2.600000e-07	-6.213234e-09	-1.891330e-08	-3.383167e+01	-2.432841e+03
2.700000e-07	-6.200936e-09	-1.891399e-08	-3.376470e+01	-2.430064e+03
2.800000e-07	-6.188364e-09	-1.888419e-08	-3.369624e+01	-2.427180e+03
2.900000e-07	-6.175346e-09	-1.884542e-08	-3.362536e+01	-2.424192e+03
3.000000e-07	-6.161741e-09	-1.883381e-08	-3.355128e+01	-2.421099e+03
3.100000e-07	-6.147687e-09	-1.881399e-08	-3.347476e+01	-2.417905e+03
3.200000e-07	-6.133234e-09	-1.876757e-08	-3.339606e+01	-2.414609e+03
3.300000e-07	-6.118268e-09	-1.874342e-08	-3.331457e+01	-2.411211e+03
3.400000e-07	-6.102865e-09	-1.873683e-08	-3.323070e+01	-2.407712e+03
3.500000e-07	-6.087132e-09	-1.869814e-08	-3.314503e+01	-2.404110e+03
3.600000e-07	-6.070959e-09	-1.865141e-08	-3.305696e+01	-2.400404e+03
3.700000e-07	-6.054250e-09	-1.863932e-08	-3.296598e+01	-2.396592e+03
3.800000e-07	-6.037094e-09	-1.861842e-08	-3.287257e+01	-2.392671e+03
3.900000e-07	-6.019479e-09	-1.856405e-08	-3.277665e+01	-2.388639e+03
4.000000e-07	-6.001345e-09	-1.852825e-08	-3.267791e+01	-2.384494e+03
4.100000e-07	-5.982773e-09	-1.851430e-08	-3.257678e+01	-2.380233e+03
4.200000e-07	-5.963844e-09	-1.847399e-08	-3.247371e+01	-2.375855e+03
4.300000e-07	-5.944479e-09	-1.842621e-08	-3.236827e+01	-2.371359e+03
4.400000e-07	-5.924589e-09	-1.840244e-08	-3.225997e+01	-2.366743e+03
4.500000e-07	-5.904148e-09	-1.836747e-08	-3.214866e+01	-2.362008e+03
4.600000e-07	-5.883189e-09	-1.831334e-08	-3.203454e+01	-2.357154e+03
4.700000e-07	-5.861768e-09	-1.827825e-08	-3.191790e+01	-2.352181e+03
4.800000e-07	-5.839966e-09	-1.824900e-08	-3.179918e+01	-2.347090e+03
4.900000e-07	-5.817798e-09	-1.819900e-08	-3.167848e+01	-2.341883e+03
5.000000e-07	-5.795234e-09	-1.815649e-08	-3.155561e+01	-2.336561e+03
5.100000e-07	-5.772192e-09	-1.812649e-08	-3.143015e+01	-2.331124e+03
5.200000e-07	-5.748618e-09	-1.807795e-08	-3.130179e+01	-2.325574e+03
5.300000e-07	-5.724573e-09	-1.802416e-08	-3.117086e+01	-2.319911e+03
5.400000e-07	-5.700130e-09	-1.798671e-08	-3.103777e+01	-2.314135e+03
5.500000e-07	-5.675302e-09	-1.794097e-08	-3.090257e+01	-2.308247e+03
5.600000e-07	-5.650083e-09	-1.788410e-08	-3.076526e+01	-2.302244e+03
5.700000e-07	-5.624525e-09	-1.784090e-08	-3.062609e+01	-2.296127e+03
5.800000e-07	-5.598614e-09	-1.779981e-08	-3.048500e+01	-2.289893e+03
5.900000e-07	-5.572202e-09	-1.774479e-08	-3.034119e+01	-2.283541e+03
6.000000e-07	-5.545282e-09	-1.769318e-08	-3.019460e+01	-2.277069e+03
6.100000e-07	-5.518011e-09	-1.764551e-08	-3.004611e+01	-2.270476e+03
6.200000e-07	-5.490412e-09	-1.758810e-08	-2.989583e+01	-2.263759e+03
6.300000e-07	-5.462418e-09	-1.753201e-08	-2.974340e+01	-2.256917e+03
6.400000e-07	-5.434026e-09	-1.748245e-08	-2.958880e+01	-2.249947e+03
6.500000e-07	-5.405268e-09	-1.742541e-08	-2.943221e+01	-2.242849e+03
6.600000e-07	-5.376111e-09	-1.736592e-08	-2.927345e+01	-2.235620e+03
6.700000e-07	-5.346459e-09	-1.731303e-08	-2.911199e+01	-2.228259e+03
6.800000e-07	-5.316287e-09	-1.725539e-08	-2.894770e+01	-2.220765e+03
6.900000e-07	-5.285686e-09	-1.719068e-08	-2.878108e+01	-2.213136e+03
7.000000e-07	-5.254710e-09	-1.712944e-08	-2.861241e+01	-2.205370e+03
7.100000e-07	-5.223326e-09	-1.706833e-08	-2.844152e+01	-2.197468e+03
7.200000e-07	-5.191490e-09	-1.700362e-08	-2.826817e+01	-2.189426e+03
7.300000e-07	-5.159241e-09	-1.694132e-08	-2.809257e+01	-2.181244e+03
7.400000e-07	-5.126631e-09	-1.687851e-08	-2.791501e+01	-2.172922e+03
7.500000e-07	-5.093672e-09	-1.681041e-08	-2.773554e+01	-2.164457e+03
7.600000e-07	-5.060385e-09	-1.674181e-08	-2.755429e+01	-2.155850e+03
7.700000e-07	-5.026805e-09	-1.667430e-08	-2.737145e+01	-2.147100e+03
7.800000e-07	-4.992921e-09	-1.660338e-08	-2.718694e+01	-2.138207e+03
7.900000e-07	-4.958698e-09	-1.653052e-08	-2.700060e+01	-2.129172e+03
8.000000e-07	-4.924139e-09	-1.645866e-08	-2.681242e+01	-2.119996e+03
8.100000e-07	-4.889253e-09	-1.638618e-08	-2.662246e+01	-2.110680e+03
8.200000e-07	-4.854056e-09	-1.631228e-08	-2.643081e+01	-2.101225e+03
8.300000e-07	-4.818513e-09	-1.623822e-08	-2.623728e+01	-2.091633e+03
8.400000e-07	-4.782537e-09	-1.616291e-08	-2.604138e+01	-2.081905e+03
8.500000e-07	-4.746128e-09	-1.608598e-08	-2.584313e+01	-2.072041e+03
8.600000e-07	-4.709396e-09	-1.600774e-08	-2.564313e+01	-2.062043e+03
8.700000e-07	-4.672396e-09	-1.592833e-08	-2.544166e+01	-2.051909e+03
8.800000e-07	-4.635101e-09	-1.584819e-08	-2.523858e+01	-2.041638e+03
8.900000e-07	-4.597478e-09	-1.576775e-08	-2.503372e+01	-2.031228e+03
9.000000e-07	-4.559524e-09	-1.568606e-08	-2.482706e+01	-2.020676e+03
9.100000e-07	-4.521242e-09	-1.560204e-08	-2.461861e+01	-2.009979e+03
9.200000e-07	-4.482615e-09	-1.551653e-08	-2.440828e+01	-1.999131e+03
9.300000e-07	-4.443596e-09	-1.543134e-08	-2.419582e+01	-1.988127e+03
9.400000e-07	-4.404161e-09	-1.534587e-08	-2.398109e+01	-1.976962e+03
9.500000e-07	-4.364364e-09	-1.525847e-08	-2.376439e+01	-1.965631e+03
9.600000e-07	-4.324281e-09	-1.516915e-08	-2.354614e+01	-1.954130e+03
9.700000e-07	-4.283917e-09	-1.507820e-08	-2.332635e+01	-1.942454e+03
9.800000e-07	-4.243254e-09	-1.498539e-08	-2.310494e+01	-1.930601e+03
9.900000e-07	-4.202294e-09	-1.489112e-08	-2.288191e+01	-1.918568e+03
1.000000e-06	-4.161068e-09	-1.479617e-08	-2.265742e+01	-1.906357e+03
1.010000e-06	-4.119597e-09	-1.470029e-08	-2.243161e+01	-1.893967e+03
1.020000e-06	-4.077856e-09	-1.460281e-08	-2.220433e+01	-1.881401e+03
1.030000e-06	-4.035784e-09	-1.450389e-08	-2.197524e+01	-1.868662e+03
1.040000e-06	-3.993339e-09	-1.440360e-08	-2.174412e+01	-1.855754e+03
1.050000e-06	-3.950522e-09	-1.430144e-08	-2.151098e+01	-1.842681e+03
1.060000e-06	-3.907387e-09	-1.419806e-08	-2.127611e+01	-1.829448e+03
1.070000e-06	-3.863991e-09	-1.409331e-08	-2.103981e+01	-1.816056e+03
1.080000e-06	-3.820354e-09	-1.398710e-08	-2.080221e+01	-1.802508e+03
1.090000e-06	-3.776460e-09	-1.388060e-08	-2.056320e+01	-1.788805e+03
1.100000e-06	-3.732305e-09	-1.377380e-08	-2.032277e+01	-1.774946e+03
1.110000e-06	-3.687923e-09	-1.366542e-08	-2.008110e+01	-1.760928e+03
1.120000e-06	-3.643318e-09	-1.355524e-08	-1.983823e+01	-1.746747e+03
1.130000e-06	-3.598470e-09	-1.344423e-08	-1.959403e+01	-1.732396e+03
1.140000e-06	-3.553358e-09	-1.333218e-08	-1.934839e+01	-1.717868e+03
1.150000e-06	-3.507944e-09	-1.321835e-08	-1.910110e+01	-1.703154e+03
1.160000e-06	-3.462184e-09	-1.310292e-08	-1.885193e+01	-1.688245e+03
1.170000e-06	-3.416081e-09	-1.298573e-08	-1.860090e+01	-1.673131e+03
1.180000e-06	-3.369680e-09	-1.286661e-08	-1.834824e+01	-1.657804e+03
1.190000e-06	-3.323018e-09	-1.274507e-08	-1.809416e+01	-1.642257e+03
1.200000e-06	-3.276108e-09	-1.262134e-08	-1.783873e+01	-1.626481e+03
1.210000e-06	-3.228951e-09	-1.249656e-08	-1.758196e+01	-1.610472e+03
1.220000e-06	-3.181561e-09	-1.237098e-08	-1.732392e+01	-1.594227e+03
1.230000e-06	-3.133963e-09	-1.224285e-08	-1.706474e+01	-1.577743e+03
1.240000e-06	-3.086179e-09	-1.211147e-08	-1.680455e+01	-1.561020e+03
1.250000e-06	-3.038215e-09	-1.197793e-08	-1.654338e+01	-1.544060e+03
1.260000e-06	-2.990054e-09	-1.184236e-08	-1.628114e+01	-1.526863e+03
1.270000e-06	-2.941676e-09	-1.170536e-08	-1.601772e+01	-1.509432e+03
1.280000e-06	-2.893054e-09	-1.156819e-08	-1.575297e+01	-1.491770e+03
1.290000e-06	-2.844177e-09	-1.143013e-08	-1.548683e+01	-1.473878e+03
1.300000e-06	-2.795048e-09	-1.128941e-08	-1.521931e+01	-1.455757e+03
1.310000e-06	-2.745689e-09	-1.114669e-08	-1.495055e+01	-1.437408e+03
1.320000e-06	-2.696127e-09	-1.100336e-08	-1.468068e+01	-1.418830e+03
1.330000e-06	-2.646379e-09	-1.085867e-08	-1.440980e+01	-1.400020e+03
1.340000e-06	-2.596458e-09	-1.071151e-08	-1.413797e+01	-1.380974e+03
1.350000e-06	-2.546361e-09	-1.056239e-08	-1.386519e+01	-1.361687e+03
1.360000e-06	-2.496083e-09	-1.041219e-08	-1.359142e+01	-1.342155e+03
1.370000e-06	-2.445635e-09	-1.026026e-08	-1.331673e+01	-1.322369e+03
1.380000e-06	-2.395038e-09	-1.010497e-08	-1.304122e+01	-1.302325e+03
1.390000e-06	-2.344302e-09	-9.946228e-09	-1.276496e+01	-1.282013e+03
1.400000e-06	-2.293428e-09	-9.785094e-09	-1.248794e+01	-1.261429e+03
1.410000e-06	-2.242412e-09	-9.621682e-09	-1.221016e+01	-1.240566e+03
1.420000e-06	-2.191253e-09	-9.456013e-09	-1.193160e+01	-1.219418e+03
1.430000e-06	-2.139946e-09	-9.288746e-09	-1.165222e+01	-1.197980e+03
1.440000e-06	-2.088482e-09	-9.119829e-09	-1.137200e+01	-1.176248e+03
1.450000e-06	-2.036847e-09	-8.948978e-09	-1.109084e+01	-1.154218e+03
1.460000e-06	-1.985023e-09	-8.775787e-09	-1.080865e+01	-1.131886e+03
1.470000e-06	-1.933004e-09	-8.599660e-09	-1.052540e+01	-1.109248e+03
1.480000e-06	-1.880800e-09	-8.421049e-09	-1.024115e+01	-1.086299e+03
1.490000e-06	-1.828433e-09	-8.240439e-09	-9.956001e+00	-1.063035e+03
1.500000e-06	-1.775930e-09	-8.057994e-09	-9.670121e+00	-1.039450e+03
1.510000e-06	-1.723309e-09	-7.873632e-09	-9.383593e+00	-1.015538e+03
1.520000e-06	-1.670581e-09	-7.685636e-09	-9.096484e+00	-9.912927e+02
1.530000e-06	-1.617755e-09	-7.492887e-09	-8.808842e+00	-9.667054e+02
1.540000e-06	-1.564844e-09	-7.296267e-09	-8.520738e+00	-9.417682e+02
1.550000e-06	-1.511848e-09	-7.096974e-09	-8.232165e+00	-9.164725e+02
1.560000e-06	-1.458751e-09	-6.895450e-09	-7.943047e+00	-8.908098e+02
1.570000e-06	-1.405557e-09	-6.690856e-09	-7.653404e+00	-8.647717e+02
1.580000e-06	-1.352268e-09	-6.483415e-09	-7.363237e+00	-8.383507e+02
1.590000e-06	-1.298879e-09	-6.274277e-09	-7.072531e+00	-8.115396e+02
1.600000e-06	-1.245389e-09	-6.063163e-09	-6.781270e+00	-7.843326e+02
1.610000e-06	-1.191786e-09	-5.849164e-09	-6.489399e+00	-7.567246e+02
1.620000e-06	-1.138080e-09	-5.631081e-09	-6.196964e+00	-7.287117e+02
1.630000e-06	-1.084290e-09	-5.408755e-09	-5.904074e+00	-7.002909e+02
1.640000e-06	-1.030427e-09	-5.183207e-09	-5.610782e+00	-6.714600e+02
1.650000e-06	-9.765077e-10	-4.955144e-09	-5.317187e+00	-6.422172e+02
1.660000e-06	-9.225434e-10	-4.724218e-09	-5.023346e+00	-6.125610e+02
1.670000e-06	-8.685329e-10	-4.490255e-09	-4.729253e+00	-5.824901e+02
1.680000e-06	-8.144810e-10	-4.253782e-09	-4.434936e+00	-5.520029e+02
1.690000e-06	-7.603808e-10	-4.014576e-09	-4.140355e+00	-5.210977e+02
1.700000e-06	-7.062315e-10	-3.772877e-09	-3.845506e+00	-4.897723e+02
1.710000e-06	-6.520310e-10	-3.528093e-09	-3.550379e+00	-4.580249e+02
1.720000e-06	-5.977773e-10	-3.278292e-09	-3.254963e+00	-4.258533e+02
1.730000e-06	-5.434767e-10	-3.022942e-09	-2.959291e+00	-3.932565e+02
1.740000e-06	-4.891350e-10	-2.763853e-09	-2.663395e+00	-3.602342e+02
1.750000e-06	-4.347510e-10	-2.502125e-09	-2.367268e+00	-3.267881e+02
1.760000e-06	-3.803174e-10	-2.237185e-09	-2.070872e+00	-2.929225e+02
1.770000e-06	-3.258472e-10	-1.969567e-09	-1.774277e+00	-2.586447e+02
1.780000e-06	-2.713678e-10	-1.700154e-09	-1.477631e+00	-2.239659e+02
1.790000e-06	-2.168895e-10	-1.428619e-09	-1.180991e+00	-1.889017e+02
1.800000e-06	-1.624093e-10	-1.154705e-09	-8.843408e-01	-1.534727e+02
1.810000e-06	-1.079351e-10	-8.783823e-10	-5.877237e-01	-1.177046e+02
1.820000e-06	-5.347001e-11	-5.989292e-10	-2.911558e-01	-8.162849e+01
1.830000e-06	9.930841e-13	-3.161610e-10	5.401208e-03	-4.528052e+01
1.840000e-06	5.545880e-11	-3.167603e-11	3.019724e-01	-8.701912e+00
1.850000e-06	1.099272e-10	2.534969e-10	5.985586e-01	2.806173e+01
1.860000e-06	1.643967e-10	5.401371e-10	8.951500e-01	6.496096e+01
1.870000e-06	2.188696e-10	8.287789e-10	1.191760e+00	1.019433e+02
1.880000e-06	2.733318e-10	1.118531e-09	1.488313e+00	1.389542e+02
1.890000e-06	3.277692e-10	1.407283e-09	1.784729e+00	1.759379e+02
1.900000e-06	3.821836e-10	1.694003e-09	2.081021e+00	2.128382e+02
1.910000e-06	4.365643e-10	1.979288e-09	2.377130e+00	2.495999e+02
1.920000e-06	4.909074e-10	2.263474e-09	2.673033e+00	2.861693e+02
1.930000e-06	5.452117e-10	2.545356e-09	2.968725e+00	3.224949e+02
1.940000e-06	5.994660e-10	2.823639e-09	3.264146e+00	3.585286e+02
1.950000e-06	6.536654e-10	3.098533e-09	3.559267e+00	3.942258e+02
1.960000e-06	7.078118e-10	3.370856e-09	3.854099e+00	4.295461e+02
1.970000e-06	7.619126e-10	3.641170e-09	4.148684e+00	4.644537e+02
1.980000e-06	8.159726e-10	3.908653e-09	4.443045e+00	4.989174e+02
1.990000e-06	8.699885e-10	4.172168e-09	4.737167e+00	5.329109e+02
2.000000e-06	9.239547e-10	4.432015e-09	5.031019e+00	5.664128e+02
2.010000e-06	9.778673e-10	4.688039e-09	5.324578e+00	5.994061e+02
2.020000e-06	1.031721e-09	4.939691e-09	5.617818e+00	6.318787e+02
2.030000e-06	1.085499e-09	5.186862e-09	5.910646e+00	6.638228e+02
2.040000e-06	1.139195e-09	5.429620e-09	6.203023e+00	6.952343e+02
2.050000e-06	1.192807e-09	5.667908e-09	6.494943e+00	7.261127e+02
2.060000e-06	1.246323e-09	5.902043e-09	6.786347e+00	7.564610e+02
2.070000e-06	1.299736e-09	6.133106e-09	7.077186e+00	7.862843e+02
2.080000e-06	1.353036e-09	6.360946e-09	7.367407e+00	8.155903e+02
2.090000e-06	1.406233e-09	6.584214e-09	7.657072e+00	8.443882e+02
2.100000e-06	1.459340e-09	6.802536e-09	7.946244e+00	8.726881e+02
2.110000e-06	1.512354e-09	7.017131e-09	8.234912e+00	9.005011e+02
2.120000e-06	1.565281e-09	7.229190e-09	8.523105e+00	9.278383e+02
2.130000e-06	1.618123e-09	7.438893e-09	8.810831e+00	9.547107e+02
2.140000e-06	1.670878e-09	7.645686e-09	9.098092e+00	9.811287e+02
2.150000e-06	1.723537e-09	7.848943e-09	9.384821e+00	1.007102e+03
2.160000e-06	1.776075e-09	8.048306e-09	9.670897e+00	1.032641e+03
2.170000e-06	1.828470e-09	8.243692e-09	9.956192e+00	1.057752e+03
2.180000e-06	1.880702e-09	8.435105e-09	1.024060e+01	1.082444e+03
2.190000e-06	1.932759e-09	8.622114e-09	1.052406e+01	1.106723e+03
2.200000e-06	1.984627e-09	8.804861e-09	1.080648e+01	1.130598e+03
2.210000e-06	2.036296e-09	8.985101e-09	1.108782e+01	1.154074e+03
2.220000e-06	2.087777e-09	9.163577e-09	1.136814e+01	1.177160e+03
2.230000e-06	2.139098e-09	9.339045e-09	1.164759e+01	1.199864e+03
2.240000e-06	2.190268e-09	9.510998e-09	1.192622e+01	1.222193e+03
2.250000e-06	2.241299e-09	9.680661e-09	1.220409e+01	1.244158e+03
2.260000e-06	2.292201e-09	9.848953e-09	1.248126e+01	1.265770e+03
2.270000e-06	2.342979e-09	1.001554e-08	1.275775e+01	1.287039e+03
2.280000e-06	2.393625e-09	1.017963e-08	1.303352e+01	1.307978e+03
2.290000e-06	2.444109e-09	1.034028e-08	1.330841e+01	1.328599e+03
2.300000e-06	2.494416e-09	1.049738e-08	1.358234e+01	1.348914e+03
2.310000e-06	2.544548e-09	1.065176e-08	1.385531e+01	1.368935e+03
2.320000e-06	2.594508e-09	1.080365e-08	1.412735e+01	1.388672e+03
2.330000e-06	2.644303e-09	1.095266e-08	1.439848e+01	1.408134e+03
2.340000e-06	2.693934e-09	1.109919e-08	1.466873e+01	1.427329e+03
2.350000e-06	2.743387e-09	1.124318e-08	1.493801e+01	1.446263e+03
2.360000e-06	2.792637e-09	1.138474e-08	1.520618e+01	1.464939e+03
2.370000e-06	2.841656e-09	1.152623e-08	1.547309e+01	1.483358e+03
2.380000e-06	2.890416e-09	1.166795e-08	1.573859e+01	1.501522e+03
2.390000e-06	2.938912e-09	1.180744e-08	1.600266e+01	1.519428e+03
2.400000e-06	2.987154e-09	1.194454e-08	1.626534e+01	1.537074e+03
2.410000e-06	3.035175e-09	1.208031e-08	1.652682e+01	1.554459e+03
2.420000e-06	3.083007e-09	1.221408e-08	1.678727e+01	1.571581e+03
2.430000e-06	3.130655e-09	1.234507e-08	1.704672e+01	1.588437e+03
2.440000e-06	3.178106e-09	1.247340e-08	1.730509e+01	1.605030e+03
2.450000e-06	3.225334e-09	1.259942e-08	1.756225e+01	1.621362e+03
2.460000e-06	3.272316e-09	1.272424e-08	1.781808e+01	1.637436e+03
2.470000e-06	3.319058e-09	1.284831e-08	1.807259e+01	1.653260e+03
2.480000e-06	3.365556e-09	1.297045e-08	1.832578e+01	1.668841e+03
2.490000e-06	3.411773e-09	1.308969e-08	1.857743e+01	1.684191e+03
2.500000e-06	3.457672e-09	1.320541e-08	1.882735e+01	1.699321e+03
2.510000e-06	3.503232e-09	1.331863e-08	1.907543e+01	1.714242e+03
2.520000e-06	3.548461e-09	1.343119e-08	1.932171e+01	1.728966e+03
2.530000e-06	3.593403e-09	1.354274e-08	1.956642e+01	1.743505e+03
2.540000e-06	3.638110e-09	1.365311e-08	1.980986e+01	1.757868e+03
2.550000e-06	3.682604e-09	1.376283e-08	2.005214e+01	1.772062e+03
2.560000e-06	3.726869e-09	1.387121e-08	2.029316e+01	1.786093e+03
2.570000e-06	3.770884e-09	1.397828e-08	2.053282e+01	1.799962e+03
2.580000e-06	3.814636e-09	1.408389e-08	2.077106e+01	1.813671e+03
2.590000e-06	3.858129e-09	1.418750e-08	2.100788e+01	1.827215e+03
2.600000e-06	3.901388e-09	1.428952e-08	2.124344e+01	1.840591e+03
2.610000e-06	3.944409e-09	1.439088e-08	2.147769e+01	1.853793e+03
2.620000e-06	3.987125e-09	1.449245e-08	2.171028e+01	1.866813e+03
2.630000e-06	4.029467e-09	1.459330e-08	2.194083e+01	1.879645e+03
2.640000e-06	4.071426e-09	1.469213e-08	2.216931e+01	1.892282e+03
2.650000e-06	4.113061e-09	1.478890e-08	2.239602e+01	1.904722e+03
2.660000e-06	4.154429e-09	1.488389e-08	2.262127e+01	1.916960e+03
2.670000e-06	4.195534e-09	1.497721e-08	2.284509e+01	1.928997e+03
2.680000e-06	4.236354e-09	1.506882e-08	2.306736e+01	1.940835e+03
2.690000e-06	4.276876e-09	1.515807e-08	2.328800e+01	1.952480e+03
2.700000e-06	4.317109e-09	1.524526e-08	2.350707e+01	1.963939e+03
2.710000e-06	4.357070e-09	1.533234e-08	2.372466e+01	1.975222e+03
2.720000e-06	4.396737e-09	1.541907e-08	2.394066e+01	1.986340e+03
2.730000e-06	4.436017e-09	1.550378e-08	2.415454e+01	1.997304e+03
2.740000e-06	4.474866e-09	1.558674e-08	2.436608e+01	2.008127e+03
2.750000e-06	4.513336e-09	1.566882e-08	2.457555e+01	2.018818e+03
2.760000e-06	4.551484e-09	1.575018e-08	2.478327e+01	2.029388e+03
2.770000e-06	4.589317e-09	1.583093e-08	2.498927e+01	2.039842e+03
2.780000e-06	4.626834e-09	1.591098e-08	2.519356e+01	2.050187e+03
2.790000e-06	4.664048e-09	1.598978e-08	2.539619e+01	2.060424e+03
2.800000e-06	4.700988e-09	1.606768e-08	2.559733e+01	2.070552e+03
2.810000e-06	4.737664e-09	1.614526e-08	2.579704e+01	2.080569e+03
2.820000e-06	4.774006e-09	1.622173e-08	2.599493e+01	2.090469e+03
2.830000e-06	4.809904e-09	1.629651e-08	2.619039e+01	2.100245e+03
2.840000e-06	4.845356e-09	1.637031e-08	2.638343e+01	2.109888e+03
2.850000e-06	4.880466e-09	1.644359e-08	2.657461e+01	2.119390e+03
2.860000e-06	4.915271e-09	1.651608e-08	2.676413e+01	2.128742e+03
2.870000e-06	4.949736e-09	1.658764e-08	2.695179e+01	2.137937e+03
2.880000e-06	4.983844e-09	1.665827e-08	2.713751e+01	2.146966e+03
2.890000e-06	5.017636e-09	1.672729e-08	2.732151e+01	2.155826e+03
2.900000e-06	5.051145e-09	1.679466e-08	2.750397e+01	2.164513e+03
2.910000e-06	5.084328e-09	1.686164e-08	2.768466e+01	2.173024e+03
